# 090523a_SiO2.int01                                          
#                                                                                 
#     1   408
#    10
#                     
#                     
#                                                                                 
#                                                                                 
#    -1
#     6
#  0.1000000E+02
#  0.0000000E+00  0.0000000E+00  0.0000000E+00
#  0.0000000E+00  0.0000000E+00  0.0000000E+00
#  0.0000000E+00  0.0000000E+00  0.0000000E+00
   0.6250001E+00 -0.7250707E+00  0.3464099E-03
   0.6750001E+00 -0.6993361E+00  0.2450510E-03
   0.7250001E+00 -0.6697426E+00  0.2550489E-03
   0.7750001E+00 -0.6380886E+00  0.2650472E-03
   0.8250001E+00 -0.6019980E+00  0.2750455E-03
   0.8750001E+00 -0.5606697E+00  0.2850439E-03
   0.9250001E+00 -0.5136927E+00  0.2950424E-03
   0.9750001E+00 -0.4599865E+00  0.3050410E-03
   0.1025000E+01 -0.3973503E+00  0.3150401E-03
   0.1075000E+01 -0.3234391E+00  0.3301515E-03
   0.1125000E+01 -0.2356922E+00  0.3450362E-03
   0.1175000E+01 -0.1322246E+00  0.3601393E-03
   0.1225000E+01 -0.1422652E-01  0.3801315E-03
   0.1275000E+01  0.1119672E+00  0.4001254E-03
   0.1325000E+01  0.2347108E+00  0.4201189E-03
   0.1375000E+01  0.3402451E+00  0.4401135E-03
   0.1425000E+01  0.4144791E+00  0.4550280E-03
   0.1475000E+01  0.4475623E+00  0.4650268E-03
   0.1525000E+01  0.4371295E+00  0.4700006E-03
   0.1575000E+01  0.3903249E+00  0.4700000E-03
   0.1625000E+01  0.3185478E+00  0.4650270E-03
   0.1674999E+01  0.2341027E+00  0.4550281E-03
   0.1724999E+01  0.1476641E+00  0.4450282E-03
   0.1774999E+01  0.6673636E-01  0.4350294E-03
   0.1824999E+01 -0.4970675E-02  0.4300000E-03
   0.1874999E+01 -0.6661309E-01  0.4250295E-03
   0.1924999E+01 -0.1179360E+00  0.4150308E-03
   0.1974999E+01 -0.1604296E+00  0.4100005E-03
   0.2024999E+01 -0.1951597E+00  0.4100000E-03
   0.2074999E+01 -0.2229761E+00  0.4050311E-03
   0.2124999E+01 -0.2453244E+00  0.4000000E-03
   0.2174999E+01 -0.2632893E+00  0.4000000E-03
   0.2224999E+01 -0.2776159E+00  0.4000010E-03
   0.2274999E+01 -0.2895040E+00  0.4000000E-03
   0.2324999E+01 -0.2999784E+00  0.4000000E-03
   0.2374999E+01 -0.3094737E+00  0.4050306E-03
   0.2424999E+01 -0.3190990E+00  0.4100000E-03
   0.2474999E+01 -0.3301989E+00  0.4100010E-03
   0.2524999E+01 -0.3421074E+00  0.4100000E-03
   0.2574999E+01 -0.3540386E+00  0.4100000E-03
   0.2624999E+01 -0.3652859E+00  0.4100000E-03
   0.2674999E+01 -0.3736434E+00  0.4150298E-03
   0.2724998E+01 -0.3768840E+00  0.4200010E-03
   0.2774998E+01 -0.3729112E+00  0.4250291E-03
   0.2824998E+01 -0.3619427E+00  0.4300000E-03
   0.2874998E+01 -0.3467562E+00  0.4350284E-03
   0.2924998E+01 -0.3292145E+00  0.4450277E-03
   0.2974998E+01 -0.3112298E+00  0.4550282E-03
   0.3024998E+01 -0.2946041E+00  0.4650265E-03
   0.3074998E+01 -0.2800345E+00  0.4700000E-03
   0.3124998E+01 -0.2672527E+00  0.4750260E-03
   0.3174998E+01 -0.2554753E+00  0.4850254E-03
   0.3224998E+01 -0.2448132E+00  0.4950261E-03
   0.3274998E+01 -0.2353378E+00  0.5000000E-03
   0.3324998E+01 -0.2267095E+00  0.5050243E-03
   0.3374998E+01 -0.2179043E+00  0.5150238E-03
   0.3424998E+01 -0.2083572E+00  0.5250234E-03
   0.3474998E+01 -0.1984085E+00  0.5300013E-03
   0.3524998E+01 -0.1877281E+00  0.5350229E-03
   0.3574998E+01 -0.1760406E+00  0.5450225E-03
   0.3624998E+01 -0.1631007E+00  0.5550220E-03
   0.3674998E+01 -0.1487025E+00  0.5650216E-03
   0.3724998E+01 -0.1325103E+00  0.5750225E-03
   0.3774997E+01 -0.1146628E+00  0.5850208E-03
   0.3824997E+01 -0.9536869E-01  0.5950205E-03
   0.3874997E+01 -0.7397663E-01  0.6050201E-03
   0.3924997E+01 -0.5074482E-01  0.6200796E-03
   0.3974997E+01 -0.2622659E-01  0.6350207E-03
   0.4024997E+01  0.2051666E-03  0.6450157E-03
   0.4074997E+01  0.2824777E-01  0.6600748E-03
   0.4124998E+01  0.5568836E-01  0.6750180E-03
   0.4174998E+01  0.8217918E-01  0.6850145E-03
   0.4224998E+01  0.1085933E+00  0.7000707E-03
   0.4274998E+01  0.1325680E+00  0.7150137E-03
   0.4324998E+01  0.1541213E+00  0.7250170E-03
   0.4374999E+01  0.1738657E+00  0.7350168E-03
   0.4424999E+01  0.1908694E+00  0.7450131E-03
   0.4474999E+01  0.2052008E+00  0.7600654E-03
   0.4524999E+01  0.2173928E+00  0.7750122E-03
   0.4574999E+01  0.2282087E+00  0.7850158E-03
   0.4625000E+01  0.2387619E+00  0.7950156E-03
   0.4675000E+01  0.2500706E+00  0.8050115E-03
   0.4725000E+01  0.2627236E+00  0.8150153E-03
   0.4775000E+01  0.2780491E+00  0.8250113E-03
   0.4825000E+01  0.2961455E+00  0.8400599E-03
   0.4875000E+01  0.3157912E+00  0.8550148E-03
   0.4925001E+01  0.3357296E+00  0.8650104E-03
   0.4975001E+01  0.3544296E+00  0.8800572E-03
   0.5025001E+01  0.3698691E+00  0.8950099E-03
   0.5075001E+01  0.3784170E+00  0.9050141E-03
   0.5125001E+01  0.3780013E+00  0.9150140E-03
   0.5175002E+01  0.3653803E+00  0.9199957E-03
   0.5225002E+01  0.3383625E+00  0.9200000E-03
   0.5275002E+01  0.2977659E+00  0.9199957E-03
   0.5325002E+01  0.2465691E+00  0.9200000E-03
   0.5375002E+01  0.1891456E+00  0.9150131E-03
   0.5425003E+01  0.1282034E+00  0.9099956E-03
   0.5475003E+01  0.6871463E-01  0.9050132E-03
   0.5525003E+01  0.1464808E-01  0.8999957E-03
   0.5575003E+01 -0.3196958E-01  0.8950133E-03
   0.5625003E+01 -0.6991977E-01  0.8900000E-03
   0.5675004E+01 -0.9887559E-01  0.8950104E-03
   0.5725004E+01 -0.1202947E+00  0.9000000E-03
   0.5775004E+01 -0.1351746E+00  0.8999957E-03
   0.5825004E+01 -0.1437482E+00  0.9050147E-03
   0.5875004E+01 -0.1471485E+00  0.9150146E-03
   0.5925004E+01 -0.1458387E+00  0.9250100E-03
   0.5975005E+01 -0.1418222E+00  0.9350143E-03
   0.6025005E+01 -0.1365422E+00  0.9450096E-03
   0.6075005E+01 -0.1302272E+00  0.9550141E-03
   0.6125005E+01 -0.1221407E+00  0.9650139E-03
   0.6175005E+01 -0.1131472E+00  0.9750093E-03
   0.6225006E+01 -0.1047499E+00  0.9900528E-03
   0.6275006E+01 -0.9707857E-01  0.1005009E-02
   0.6325006E+01 -0.9124712E-01  0.1015014E-02
   0.6375006E+01 -0.8603971E-01  0.1025014E-02
   0.6425006E+01 -0.8254181E-01  0.1035008E-02
   0.6475007E+01 -0.8136196E-01  0.1045013E-02
   0.6525007E+01 -0.8121566E-01  0.1055008E-02
   0.6575007E+01 -0.8303791E-01  0.1065013E-02
   0.6625007E+01 -0.8740871E-01  0.1075013E-02
   0.6675007E+01 -0.9296285E-01  0.1085008E-02
   0.6725008E+01 -0.9897140E-01  0.1095013E-02
   0.6775008E+01 -0.1067598E+00  0.1105008E-02
   0.6825008E+01 -0.1166185E+00  0.1115013E-02
   0.6875008E+01 -0.1267377E+00  0.1125013E-02
   0.6925008E+01 -0.1367391E+00  0.1129995E-02
   0.6975008E+01 -0.1459180E+00  0.1135013E-02
   0.7025009E+01 -0.1552967E+00  0.1145007E-02
   0.7075009E+01 -0.1649748E+00  0.1155013E-02
   0.7125009E+01 -0.1726744E+00  0.1165012E-02
   0.7175009E+01 -0.1774264E+00  0.1175007E-02
   0.7225009E+01 -0.1791281E+00  0.1190046E-02
   0.7275010E+01 -0.1793856E+00  0.1205007E-02
   0.7325010E+01 -0.1768799E+00  0.1220045E-02
   0.7375010E+01 -0.1703934E+00  0.1235012E-02
   0.7425010E+01 -0.1602427E+00  0.1250038E-02
   0.7475010E+01 -0.1472197E+00  0.1270044E-02
   0.7525011E+01 -0.1311407E+00  0.1290037E-02
   0.7575011E+01 -0.1118380E+00  0.1310043E-02
   0.7625011E+01 -0.8970328E-01  0.1330042E-02
   0.7675011E+01 -0.6572893E-01  0.1350035E-02
   0.7725011E+01 -0.4145136E-01  0.1370041E-02
   0.7775012E+01 -0.1777783E-01  0.1395081E-02
   0.7825012E+01  0.4960358E-02  0.1420040E-02
   0.7875012E+01  0.2717583E-01  0.1440040E-02
   0.7925012E+01  0.4689090E-01  0.1460032E-02
   0.7975012E+01  0.6400578E-01  0.1485083E-02
   0.8025012E+01  0.7867180E-01  0.1510038E-02
   0.8075012E+01  0.9092373E-01  0.1530038E-02
   0.8125012E+01  0.1012034E+00  0.1550037E-02
   0.8175013E+01  0.1091501E+00  0.1570037E-02
   0.8225013E+01  0.1145463E+00  0.1584995E-02
   0.8275013E+01  0.1185422E+00  0.1600037E-02
   0.8325013E+01  0.1238148E+00  0.1620036E-02
   0.8375013E+01  0.1271310E+00  0.1640036E-02
   0.8425014E+01  0.1269822E+00  0.1660035E-02
   0.8475014E+01  0.1276722E+00  0.1680019E-02
   0.8525014E+01  0.1286520E+00  0.1700035E-02
   0.8575014E+01  0.1297734E+00  0.1720035E-02
   0.8625014E+01  0.1299068E+00  0.1740035E-02
   0.8675014E+01  0.1286401E+00  0.1755010E-02
   0.8725015E+01  0.1275897E+00  0.1770018E-02
   0.8775015E+01  0.1251757E+00  0.1790034E-02
   0.8825015E+01  0.1222578E+00  0.1810034E-02
   0.8875015E+01  0.1179190E+00  0.1830033E-02
   0.8925015E+01  0.1129011E+00  0.1850033E-02
   0.8975016E+01  0.1089221E+00  0.1870015E-02
   0.9025016E+01  0.1049066E+00  0.1890033E-02
   0.9075016E+01  0.9872379E-01  0.1910033E-02
   0.9125016E+01  0.9132132E-01  0.1925010E-02
   0.9175016E+01  0.8297592E-01  0.1940032E-02
   0.9225017E+01  0.7355077E-01  0.1960013E-02
   0.9275017E+01  0.6290774E-01  0.1980032E-02
   0.9325017E+01  0.5158152E-01  0.2000032E-02
   0.9375017E+01  0.4173422E-01  0.2020032E-02
   0.9425017E+01  0.3260255E-01  0.2040031E-02
   0.9475018E+01  0.2174985E-01  0.2054990E-02
   0.9525018E+01  0.1153232E-01  0.2070031E-02
   0.9575018E+01  0.3525121E-02  0.2090031E-02
   0.9625018E+01 -0.6429322E-02  0.2110031E-02
   0.9675018E+01 -0.1810344E-01  0.2130031E-02
   0.9725019E+01 -0.2744503E-01  0.2150010E-02
   0.9775019E+01 -0.3329095E-01  0.2170030E-02
   0.9825019E+01 -0.4026628E-01  0.2190031E-02
   0.9875019E+01 -0.4665858E-01  0.2215062E-02
   0.9925019E+01 -0.5031221E-01  0.2240030E-02
   0.9975019E+01 -0.5597544E-01  0.2260008E-02
   0.1002502E+02 -0.5999038E-01  0.2285061E-02
   0.1007502E+02 -0.6202453E-01  0.2310030E-02
   0.1012502E+02 -0.6334341E-01  0.2335060E-02
   0.1017502E+02 -0.6331675E-01  0.2360029E-02
   0.1022502E+02 -0.6607027E-01  0.2380006E-02
   0.1027502E+02 -0.6957996E-01  0.2405060E-02
   0.1032502E+02 -0.6950438E-01  0.2435059E-02
   0.1037502E+02 -0.6735109E-01  0.2460029E-02
   0.1042502E+02 -0.6582014E-01  0.2485058E-02
   0.1047502E+02 -0.6686228E-01  0.2510005E-02
   0.1052502E+02 -0.6806429E-01  0.2535057E-02
   0.1057502E+02 -0.6594495E-01  0.2565057E-02
   0.1062502E+02 -0.6771110E-01  0.2590028E-02
   0.1067502E+02 -0.6999308E-01  0.2615056E-02
   0.1072502E+02 -0.6988734E-01  0.2645031E-02
   0.1077502E+02 -0.6988858E-01  0.2675056E-02
   0.1082502E+02 -0.7065712E-01  0.2700028E-02
   0.1087502E+02 -0.7425034E-01  0.2725055E-02
   0.1092502E+02 -0.7685722E-01  0.2755055E-02
   0.1097502E+02 -0.7972015E-01  0.2785028E-02
   0.1102502E+02 -0.8393831E-01  0.2810027E-02
   0.1107502E+02 -0.8494907E-01  0.2835054E-02
   0.1112502E+02 -0.8799633E-01  0.2865054E-02
   0.1117502E+02 -0.9365888E-01  0.2895053E-02
   0.1122502E+02 -0.9476773E-01  0.2925025E-02
   0.1127502E+02 -0.9556516E-01  0.2955053E-02
   0.1132502E+02 -0.9612226E-01  0.2985052E-02
   0.1137502E+02 -0.9537446E-01  0.3015053E-02
   0.1142502E+02 -0.9572258E-01  0.3045052E-02
   0.1147503E+02 -0.9477392E-01  0.3075022E-02
   0.1152503E+02 -0.9067968E-01  0.3105052E-02
   0.1157503E+02 -0.8648695E-01  0.3135051E-02
   0.1162503E+02 -0.8081251E-01  0.3170084E-02
   0.1167503E+02 -0.7264348E-01  0.3205051E-02
   0.1172503E+02 -0.6276309E-01  0.3240052E-02
   0.1177503E+02 -0.5020054E-01  0.3275050E-02
   0.1182503E+02 -0.3960649E-01  0.3310082E-02
   0.1187503E+02 -0.2779635E-01  0.3350081E-02
   0.1192503E+02 -0.1267008E-01  0.3390081E-02
   0.1197503E+02  0.3528226E-02  0.3425016E-02
   0.1202503E+02  0.2126538E-01  0.3460080E-02
   0.1207503E+02  0.3959324E-01  0.3500079E-02
   0.1212503E+02  0.5611803E-01  0.3540079E-02
   0.1217503E+02  0.7173204E-01  0.3580078E-02
   0.1222503E+02  0.8636648E-01  0.3620043E-02
   0.1227503E+02  0.1015318E+00  0.3660078E-02
   0.1232503E+02  0.1195718E+00  0.3700077E-02
   0.1237503E+02  0.1309984E+00  0.3735047E-02
   0.1242503E+02  0.1402550E+00  0.3770076E-02
   0.1247503E+02  0.1471114E+00  0.3805011E-02
   0.1252503E+02  0.1522678E+00  0.3840076E-02
   0.1257503E+02  0.1564069E+00  0.3875047E-02
   0.1262503E+02  0.1559497E+00  0.3910075E-02
   0.1267503E+02  0.1509377E+00  0.3945046E-02
   0.1272503E+02  0.1477051E+00  0.3975009E-02
   0.1277503E+02  0.1448614E+00  0.4005046E-02
   0.1282503E+02  0.1349876E+00  0.4035046E-02
   0.1287503E+02  0.1276916E+00  0.4065046E-02
   0.1292503E+02  0.1180555E+00  0.4095046E-02
   0.1297503E+02  0.1041333E+00  0.4125006E-02
   0.1302503E+02  0.9346059E-01  0.4155046E-02
   0.1307503E+02  0.8353680E-01  0.4185046E-02
   0.1312503E+02  0.6621813E-01  0.4210025E-02
   0.1317503E+02  0.5105300E-01  0.4240072E-02
   0.1322503E+02  0.4192340E-01  0.4269984E-02
   0.1327503E+02  0.2866163E-01  0.4295046E-02
   0.1332503E+02  0.1445545E-01  0.4325045E-02
   0.1337503E+02  0.6549828E-02  0.4355046E-02
   0.1342503E+02  0.1613498E-03  0.4385045E-02
   0.1347503E+02 -0.8402564E-02  0.4415003E-02
   0.1352503E+02 -0.1576276E-01  0.4445045E-02
   0.1357503E+02 -0.2089348E-01  0.4480071E-02
   0.1362503E+02 -0.2946192E-01  0.4510025E-02
   0.1367503E+02 -0.4041934E-01  0.4535045E-02
   0.1372503E+02 -0.4689902E-01  0.4570028E-02
   0.1377503E+02 -0.4833312E-01  0.4605045E-02
   0.1382503E+02 -0.5107104E-01  0.4635045E-02
   0.1387503E+02 -0.5556235E-01  0.4665044E-02
   0.1392503E+02 -0.5829903E-01  0.4700070E-02
   0.1397503E+02 -0.5882018E-01  0.4735000E-02
   0.1402503E+02 -0.5789004E-01  0.4765045E-02
   0.1407504E+02 -0.6575434E-01  0.4795045E-02
   0.1412504E+02 -0.6755856E-01  0.4830069E-02
   0.1417504E+02 -0.6637372E-01  0.4865044E-02
   0.1422504E+02 -0.6941105E-01  0.4894997E-02
   0.1427504E+02 -0.6323589E-01  0.4925045E-02
   0.1432504E+02 -0.5878384E-01  0.4960069E-02
   0.1437504E+02 -0.6066131E-01  0.4995045E-02
   0.1442504E+02 -0.6288187E-01  0.5025044E-02
   0.1447504E+02 -0.6094471E-01  0.5054996E-02
   0.1452504E+02 -0.5494772E-01  0.5090069E-02
   0.1457504E+02 -0.5046134E-01  0.5125044E-02
   0.1462504E+02 -0.4505349E-01  0.5160068E-02
   0.1467504E+02 -0.3839423E-01  0.5195044E-02
   0.1472504E+02 -0.3677819E-01  0.5224994E-02
   0.1477504E+02 -0.3470274E-01  0.5255044E-02
   0.1482504E+02 -0.3353038E-01  0.5285045E-02
   0.1487504E+02 -0.3866395E-01  0.5315043E-02
   0.1492504E+02 -0.3409724E-01  0.5350068E-02
   0.1497504E+02 -0.2245913E-01  0.5384993E-02
   0.1502504E+02 -0.2033107E-01  0.5415044E-02
   0.1507504E+02 -0.1965236E-01  0.5445044E-02
   0.1512504E+02 -0.1427031E-01  0.5475044E-02
   0.1517504E+02 -0.7000115E-02  0.5505044E-02
   0.1522504E+02 -0.6444022E-02  0.5534991E-02
   0.1527504E+02 -0.1596528E-01  0.5560025E-02
   0.1532504E+02 -0.1105440E-01  0.5590068E-02
   0.1537504E+02 -0.6164983E-03  0.5625045E-02
   0.1542504E+02 -0.1031965E-02  0.5655044E-02
   0.1547504E+02 -0.2471551E-02  0.5679971E-02
   0.1552504E+02 -0.4482172E-02  0.5705044E-02
   0.1557504E+02 -0.4411034E-02  0.5735044E-02
   0.1562504E+02 -0.5902126E-03  0.5765044E-02
   0.1567504E+02  0.5184032E-02  0.5790025E-02
   0.1572504E+02  0.3202274E-02  0.5814989E-02
   0.1577504E+02  0.7555842E-02  0.5845044E-02
   0.1582504E+02  0.1237281E-01  0.5870026E-02
   0.1587504E+02  0.1209806E-01  0.5895044E-02
   0.1592504E+02  0.1707096E-01  0.5925044E-02
   0.1597504E+02  0.2029046E-01  0.5950025E-02
   0.1602504E+02  0.2827288E-01  0.5975158E-02
   0.1607504E+02  0.3459766E-01  0.6000025E-02
   0.1612504E+02  0.3788107E-01  0.6025043E-02
   0.1617504E+02  0.3903397E-01  0.6050140E-02
   0.1622504E+02  0.3544178E-01  0.6070024E-02
   0.1627504E+02  0.3411667E-01  0.6090139E-02
   0.1632504E+02  0.4031491E-01  0.6115039E-02
   0.1637504E+02  0.4980921E-01  0.6140022E-02
   0.1642504E+02  0.5931587E-01  0.6165157E-02
   0.1647503E+02  0.6839913E-01  0.6190022E-02
   0.1652503E+02  0.6937683E-01  0.6205127E-02
   0.1657503E+02  0.7145664E-01  0.6225037E-02
   0.1662503E+02  0.7478058E-01  0.6245009E-02
   0.1667503E+02  0.7779531E-01  0.6260140E-02
   0.1672503E+02  0.7887154E-01  0.6280020E-02
   0.1677503E+02  0.7888720E-01  0.6300140E-02
   0.1682503E+02  0.8288667E-01  0.6315008E-02
   0.1687503E+02  0.8287090E-01  0.6330019E-02
   0.1692503E+02  0.8513153E-01  0.6350140E-02
   0.1697503E+02  0.8530589E-01  0.6365008E-02
   0.1702503E+02  0.8222569E-01  0.6375129E-02
   0.1707503E+02  0.7684281E-01  0.6385007E-02
   0.1712502E+02  0.7572574E-01  0.6400018E-02
   0.1717502E+02  0.7040665E-01  0.6410122E-02
   0.1722502E+02  0.6268286E-01  0.6415007E-02
   0.1727502E+02  0.5639067E-01  0.6425129E-02
   0.1732502E+02  0.5125194E-01  0.6435006E-02
   0.1737502E+02  0.4659639E-01  0.6445006E-02
   0.1742502E+02  0.3588744E-01  0.6450123E-02
   0.1747502E+02  0.2881963E-01  0.6455006E-02
   0.1752502E+02  0.1942003E-01  0.6460123E-02
   0.1757502E+02  0.9276465E-02  0.6465005E-02
   0.1762502E+02  0.2866820E-02  0.6470000E-02
   0.1767502E+02 -0.4465152E-02  0.6475128E-02
   0.1772502E+02 -0.1582318E-01  0.6480000E-02
   0.1777501E+02 -0.2327340E-01  0.6480123E-02
   0.1782501E+02 -0.2656678E-01  0.6485004E-02
   0.1787501E+02 -0.2956698E-01  0.6490000E-02
   0.1792501E+02 -0.3729795E-01  0.6490124E-02
   0.1797501E+02 -0.3955029E-01  0.6490000E-02
   0.1802501E+02 -0.3408464E-01  0.6495128E-02
   0.1807501E+02 -0.3957806E-01  0.6495000E-02
   0.1812501E+02 -0.4717414E-01  0.6490000E-02
   0.1817501E+02 -0.4682691E-01  0.6490124E-02
   0.1822501E+02 -0.4506215E-01  0.6490000E-02
   0.1827501E+02 -0.3927936E-01  0.6495127E-02
   0.1832501E+02 -0.4088499E-01  0.6495001E-02
   0.1837501E+02 -0.4695869E-01  0.6490000E-02
   0.1842500E+02 -0.4926793E-01  0.6485125E-02
   0.1847500E+02 -0.5069588E-01  0.6480000E-02
   0.1852500E+02 -0.5069250E-01  0.6480123E-02
   0.1857500E+02 -0.4902716E-01  0.6475001E-02
   0.1862500E+02 -0.4921420E-01  0.6470000E-02
   0.1867500E+02 -0.5041325E-01  0.6465125E-02
   0.1872500E+02 -0.4149798E-01  0.6460000E-02
   0.1877500E+02 -0.3914465E-01  0.6455125E-02
   0.1882500E+02 -0.4085593E-01  0.6445003E-02
   0.1887500E+02 -0.3589798E-01  0.6435003E-02
   0.1892500E+02 -0.2728385E-01  0.6430123E-02
   0.1897500E+02 -0.2894235E-01  0.6420009E-02
   0.1902500E+02 -0.3354701E-01  0.6405125E-02
   0.1907500E+02 -0.2103050E-01  0.6400000E-02
   0.1912499E+02 -0.9737512E-02  0.6395003E-02
   0.1917499E+02 -0.1060317E-01  0.6380132E-02
   0.1922499E+02 -0.1171632E-01  0.6365004E-02
   0.1927499E+02 -0.1188418E-01  0.6355125E-02
   0.1932499E+02 -0.9434958E-02  0.6340012E-02
   0.1937499E+02  0.2159874E-02  0.6325005E-02
   0.1942499E+02  0.7631902E-02  0.6310132E-02
   0.1947499E+02  0.6844642E-02  0.6295004E-02
   0.1952499E+02  0.1024640E-01  0.6280133E-02
   0.1957499E+02  0.1620075E-01  0.6265005E-02
   0.1962499E+02  0.1863836E-01  0.6250013E-02
   0.1967499E+02  0.1982627E-01  0.6230132E-02
   0.1972499E+02  0.2385330E-01  0.6210014E-02
   0.1977498E+02  0.2261475E-01  0.6185146E-02
   0.1982498E+02  0.2306326E-01  0.6160016E-02
   0.1987498E+02  0.2582836E-01  0.6140016E-02
   0.1992498E+02  0.2429247E-01  0.6120132E-02
   0.1997498E+02  0.2555109E-01  0.6095030E-02
